NA=1e+17 Nt=1e+14 Et=0.24 sigmaN=2e-14 sigmaP=4e-15 deltaNPowers:[12,19] temp:[100,700] tempStep=100
1e+12 5.00079e-10 3.53669e-10 3.09316e-10 6.1528e-10 2.48208e-09 8.2844e-09 2.11058e-08
2e+12 5.00159e-10 3.53688e-10 3.09331e-10 6.15289e-10 2.48207e-09 8.28432e-09 2.11056e-08
3e+12 5.00238e-10 3.53708e-10 3.09345e-10 6.15298e-10 2.48206e-09 8.28425e-09 2.11054e-08
4e+12 5.00317e-10 3.53727e-10 3.0936e-10 6.15307e-10 2.48204e-09 8.28418e-09 2.11052e-08
5e+12 5.00396e-10 3.53746e-10 3.09374e-10 6.15316e-10 2.48203e-09 8.28411e-09 2.1105e-08
6e+12 5.00476e-10 3.53765e-10 3.09389e-10 6.15325e-10 2.48202e-09 8.28404e-09 2.11048e-08
7e+12 5.00555e-10 3.53785e-10 3.09403e-10 6.15333e-10 2.48201e-09 8.28397e-09 2.11046e-08
8e+12 5.00634e-10 3.53804e-10 3.09418e-10 6.15342e-10 2.482e-09 8.2839e-09 2.11044e-08
9e+12 5.00713e-10 3.53823e-10 3.09432e-10 6.15351e-10 2.48199e-09 8.28383e-09 2.11042e-08
1e+13 5.00793e-10 3.53842e-10 3.09446e-10 6.1536e-10 2.48198e-09 8.28376e-09 2.1104e-08
2e+13 5.01585e-10 3.54035e-10 3.09591e-10 6.15449e-10 2.48186e-09 8.28305e-09 2.1102e-08
3e+13 5.02376e-10 3.54227e-10 3.09735e-10 6.15538e-10 2.48175e-09 8.28235e-09 2.11e-08
4e+13 5.03167e-10 3.5442e-10 3.09879e-10 6.15627e-10 2.48163e-09 8.28164e-09 2.1098e-08
5e+13 5.03958e-10 3.54612e-10 3.10024e-10 6.15715e-10 2.48152e-09 8.28093e-09 2.1096e-08
6e+13 5.04748e-10 3.54805e-10 3.10168e-10 6.15804e-10 2.4814e-09 8.28023e-09 2.1094e-08
7e+13 5.05538e-10 3.54997e-10 3.10312e-10 6.15893e-10 2.48129e-09 8.27952e-09 2.10921e-08
8e+13 5.06327e-10 3.55189e-10 3.10456e-10 6.15982e-10 2.48118e-09 8.27882e-09 2.10901e-08
9e+13 5.07115e-10 3.55381e-10 3.106e-10 6.16071e-10 2.48106e-09 8.27811e-09 2.10881e-08
1e+14 5.07903e-10 3.55573e-10 3.10744e-10 6.16159e-10 2.48095e-09 8.2774e-09 2.10861e-08
2e+14 5.15757e-10 3.57493e-10 3.12184e-10 6.17046e-10 2.47981e-09 8.27036e-09 2.10661e-08
3e+14 5.23561e-10 3.59408e-10 3.1362e-10 6.1793e-10 2.47867e-09 8.26333e-09 2.10463e-08
4e+14 5.31316e-10 3.61319e-10 3.15054e-10 6.18813e-10 2.47754e-09 8.25631e-09 2.10264e-08
5e+14 5.39023e-10 3.63225e-10 3.16485e-10 6.19694e-10 2.4764e-09 8.2493e-09 2.10066e-08
6e+14 5.46682e-10 3.65128e-10 3.17913e-10 6.20573e-10 2.47527e-09 8.24231e-09 2.09868e-08
7e+14 5.54293e-10 3.67027e-10 3.19338e-10 6.2145e-10 2.47414e-09 8.23533e-09 2.09671e-08
8e+14 5.61857e-10 3.68921e-10 3.2076e-10 6.22326e-10 2.47302e-09 8.22837e-09 2.09474e-08
9e+14 5.69375e-10 3.70811e-10 3.22179e-10 6.232e-10 2.4719e-09 8.22142e-09 2.09278e-08
1e+15 5.76847e-10 3.72698e-10 3.23595e-10 6.24072e-10 2.47077e-09 8.21449e-09 2.09082e-08
2e+15 6.4911e-10 3.91339e-10 3.37605e-10 6.327e-10 2.45968e-09 8.14588e-09 2.07142e-08
3e+15 7.17187e-10 4.09587e-10 3.51338e-10 6.4116e-10 2.4488e-09 8.07861e-09 2.0524e-08
4e+15 7.81433e-10 4.27455e-10 3.64803e-10 6.49456e-10 2.43814e-09 8.01264e-09 2.03375e-08
5e+15 8.42162e-10 4.44953e-10 3.78008e-10 6.57593e-10 2.42767e-09 7.94792e-09 2.01545e-08
6e+15 8.99655e-10 4.62093e-10 3.90961e-10 6.65576e-10 2.41741e-09 7.88442e-09 1.99749e-08
7e+15 9.54163e-10 4.78886e-10 4.03668e-10 6.73409e-10 2.40733e-09 7.82211e-09 1.97988e-08
8e+15 1.00591e-09 4.95343e-10 4.16136e-10 6.81097e-10 2.39744e-09 7.76096e-09 1.96258e-08
9e+15 1.05511e-09 5.11473e-10 4.28373e-10 6.88642e-10 2.38774e-09 7.70093e-09 1.94561e-08
1e+16 1.10194e-09 5.27287e-10 4.40384e-10 6.9605e-10 2.37821e-09 7.642e-09 1.92895e-08
2e+16 1.47026e-09 6.69862e-10 5.4935e-10 7.63313e-10 2.29168e-09 7.10671e-09 1.77758e-08
3e+16 1.71887e-09 7.89027e-10 6.41361e-10 8.20189e-10 2.21848e-09 6.65385e-09 1.64951e-08
4e+16 1.89797e-09 8.9011e-10 7.20089e-10 8.68913e-10 2.15575e-09 6.26573e-09 1.53974e-08
5e+16 2.03313e-09 9.76935e-10 7.88217e-10 9.11119e-10 2.1014e-09 5.92941e-09 1.44462e-08
6e+16 2.13876e-09 1.05232e-09 8.47751e-10 9.48034e-10 2.05385e-09 5.63515e-09 1.36139e-08
7e+16 2.22359e-09 1.11839e-09 9.00219e-10 9.80594e-10 2.0119e-09 5.37554e-09 1.28795e-08
8e+16 2.2932e-09 1.17677e-09 9.4681e-10 1.00953e-09 1.97462e-09 5.14479e-09 1.22268e-08
9e+16 2.35136e-09 1.22872e-09 9.88459e-10 1.03541e-09 1.94127e-09 4.93835e-09 1.16428e-08
1e+17 2.40067e-09 1.27526e-09 1.02591e-09 1.05869e-09 1.91125e-09 4.75256e-09 1.11172e-08
2e+17 2.65953e-09 1.5652e-09 1.26244e-09 1.20603e-09 1.72125e-09 3.57617e-09 7.78879e-09
3e+17 2.76222e-09 1.70714e-09 1.38028e-09 1.27961e-09 1.6263e-09 2.98814e-09 6.12483e-09
4e+17 2.81732e-09 1.79136e-09 1.45084e-09 1.32373e-09 1.56934e-09 2.63538e-09 5.12653e-09
5e+17 2.85169e-09 1.84711e-09 1.49782e-09 1.35313e-09 1.53138e-09 2.40023e-09 4.46103e-09
6e+17 2.87518e-09 1.88675e-09 1.53135e-09 1.37413e-09 1.50426e-09 2.23227e-09 3.98569e-09
7e+17 2.89224e-09 1.91637e-09 1.55649e-09 1.38987e-09 1.48393e-09 2.10632e-09 3.62919e-09
8e+17 2.9052e-09 1.93936e-09 1.57602e-09 1.40211e-09 1.46812e-09 2.00835e-09 3.35192e-09
9e+17 2.91537e-09 1.9577e-09 1.59165e-09 1.41191e-09 1.45547e-09 1.92998e-09 3.1301e-09
1e+18 2.92358e-09 1.97269e-09 1.60443e-09 1.41992e-09 1.44512e-09 1.86586e-09 2.94862e-09
2e+18 2.9612e-09 2.04374e-09 1.66524e-09 1.45806e-09 1.39584e-09 1.56055e-09 2.08444e-09
3e+18 2.974e-09 2.06883e-09 1.68681e-09 1.47159e-09 1.37835e-09 1.45222e-09 1.77781e-09
4e+18 2.98045e-09 2.08166e-09 1.69784e-09 1.47852e-09 1.3694e-09 1.39674e-09 1.62075e-09
5e+18 2.98433e-09 2.08945e-09 1.70455e-09 1.48273e-09 1.36396e-09 1.36301e-09 1.52529e-09
6e+18 2.98693e-09 2.09468e-09 1.70906e-09 1.48556e-09 1.3603e-09 1.34035e-09 1.46113e-09
7e+18 2.98879e-09 2.09844e-09 1.7123e-09 1.4876e-09 1.35767e-09 1.32406e-09 1.41504e-09
8e+18 2.99018e-09 2.10127e-09 1.71474e-09 1.48913e-09 1.35569e-09 1.3118e-09 1.38033e-09
9e+18 2.99127e-09 2.10347e-09 1.71664e-09 1.49032e-09 1.35415e-09 1.30224e-09 1.35325e-09
1e+19 2.99214e-09 2.10524e-09 1.71817e-09 1.49128e-09 1.35291e-09 1.29456e-09 1.33153e-09
2e+19 2.99606e-09 2.11324e-09 1.72508e-09 1.49562e-09 1.3473e-09 1.25983e-09 1.2332e-09
3e+19 2.99738e-09 2.11593e-09 1.72739e-09 1.49707e-09 1.34542e-09 1.24817e-09 1.20021e-09
4e+19 2.99803e-09 2.11727e-09 1.72855e-09 1.4978e-09 1.34448e-09 1.24233e-09 1.18367e-09
5e+19 2.99842e-09 2.11808e-09 1.72925e-09 1.49824e-09 1.34391e-09 1.23882e-09 1.17374e-09
6e+19 2.99869e-09 2.11862e-09 1.72972e-09 1.49853e-09 1.34353e-09 1.23648e-09 1.16711e-09
7e+19 2.99887e-09 2.11901e-09 1.73005e-09 1.49874e-09 1.34326e-09 1.2348e-09 1.16237e-09
8e+19 2.99902e-09 2.11929e-09 1.7303e-09 1.4989e-09 1.34306e-09 1.23355e-09 1.15881e-09
9e+19 2.99912e-09 2.11952e-09 1.73049e-09 1.49902e-09 1.3429e-09 1.23257e-09 1.15605e-09
