Defects used:[defect_Cr.txt,] deltaNPowers:[12,19] temp:[100,700] tempStep=100
1e+12 1.11193e-09 7.8806e-10 1.09413e-09 8.63355e-09 5.05732e-08 1.79688e-07 4.51384e-07
2e+12 1.11274e-09 7.88456e-10 1.09441e-09 8.63302e-09 5.05684e-08 1.7967e-07 4.5134e-07
3e+12 1.11356e-09 7.88852e-10 1.09468e-09 8.63249e-09 5.05636e-08 1.79653e-07 4.51297e-07
4e+12 1.11437e-09 7.89248e-10 1.09496e-09 8.63196e-09 5.05589e-08 1.79635e-07 4.51253e-07
5e+12 1.11519e-09 7.89644e-10 1.09524e-09 8.63143e-09 5.05541e-08 1.79617e-07 4.5121e-07
6e+12 1.116e-09 7.9004e-10 1.09551e-09 8.6309e-09 5.05494e-08 1.796e-07 4.51166e-07
7e+12 1.11682e-09 7.90436e-10 1.09579e-09 8.63037e-09 5.05446e-08 1.79582e-07 4.51122e-07
8e+12 1.11763e-09 7.90832e-10 1.09606e-09 8.62984e-09 5.05399e-08 1.79564e-07 4.51079e-07
9e+12 1.11845e-09 7.91228e-10 1.09634e-09 8.62931e-09 5.05351e-08 1.79547e-07 4.51035e-07
1e+13 1.11926e-09 7.91624e-10 1.09661e-09 8.62878e-09 5.05304e-08 1.79529e-07 4.50992e-07
2e+13 1.12738e-09 7.95576e-10 1.09936e-09 8.62349e-09 5.04829e-08 1.79353e-07 4.50557e-07
3e+13 1.13548e-09 7.9952e-10 1.10211e-09 8.61822e-09 5.04356e-08 1.79177e-07 4.50124e-07
4e+13 1.14356e-09 8.03456e-10 1.10485e-09 8.61296e-09 5.03883e-08 1.79001e-07 4.49691e-07
5e+13 1.15161e-09 8.07385e-10 1.10758e-09 8.6077e-09 5.03411e-08 1.78826e-07 4.49259e-07
6e+13 1.15964e-09 8.11305e-10 1.11031e-09 8.60246e-09 5.0294e-08 1.78651e-07 4.48828e-07
7e+13 1.16765e-09 8.15218e-10 1.11304e-09 8.59723e-09 5.02471e-08 1.78476e-07 4.48397e-07
8e+13 1.17563e-09 8.19123e-10 1.11576e-09 8.59201e-09 5.02002e-08 1.78302e-07 4.47968e-07
9e+13 1.18359e-09 8.2302e-10 1.11847e-09 8.58679e-09 5.01534e-08 1.78128e-07 4.47539e-07
1e+14 1.19153e-09 8.26909e-10 1.12118e-09 8.58159e-09 5.01067e-08 1.77955e-07 4.47111e-07
2e+14 1.26966e-09 8.65378e-10 1.14796e-09 8.53014e-09 4.96447e-08 1.76238e-07 4.42878e-07
3e+14 1.34558e-09 9.03093e-10 1.17422e-09 8.47968e-09 4.91916e-08 1.74554e-07 4.38724e-07
4e+14 1.4194e-09 9.40076e-10 1.19998e-09 8.4302e-09 4.87473e-08 1.72903e-07 4.34647e-07
5e+14 1.4912e-09 9.76349e-10 1.22524e-09 8.38166e-09 4.83114e-08 1.71283e-07 4.30647e-07
6e+14 1.56106e-09 1.01193e-09 1.25003e-09 8.33403e-09 4.78838e-08 1.69693e-07 4.26719e-07
7e+14 1.62906e-09 1.04684e-09 1.27435e-09 8.2873e-09 4.74641e-08 1.68134e-07 4.22863e-07
8e+14 1.69528e-09 1.0811e-09 1.29823e-09 8.24143e-09 4.70523e-08 1.66603e-07 4.19077e-07
9e+14 1.75977e-09 1.11472e-09 1.32166e-09 8.1964e-09 4.66479e-08 1.651e-07 4.15358e-07
1e+15 1.82261e-09 1.14773e-09 1.34467e-09 8.15219e-09 4.6251e-08 1.63625e-07 4.11705e-07
2e+15 2.37256e-09 1.44731e-09 1.55362e-09 7.75062e-09 4.26452e-08 1.50223e-07 3.78441e-07
3e+15 2.81037e-09 1.70045e-09 1.73039e-09 7.41083e-09 3.95941e-08 1.38881e-07 3.50178e-07
4e+15 3.16716e-09 1.91719e-09 1.88189e-09 7.11958e-09 3.69789e-08 1.2916e-07 3.25868e-07
5e+15 3.46353e-09 2.10484e-09 2.01316e-09 6.86716e-09 3.47124e-08 1.20734e-07 3.04736e-07
6e+15 3.71361e-09 2.26889e-09 2.12801e-09 6.6463e-09 3.27293e-08 1.13361e-07 2.86196e-07
7e+15 3.92747e-09 2.41353e-09 2.22933e-09 6.45142e-09 3.09794e-08 1.06855e-07 2.698e-07
8e+15 4.11245e-09 2.54202e-09 2.31939e-09 6.27819e-09 2.94239e-08 1.01071e-07 2.55195e-07
9e+15 4.27403e-09 2.65692e-09 2.39996e-09 6.1232e-09 2.80322e-08 9.58967e-08 2.42104e-07
1e+16 4.41638e-09 2.76027e-09 2.47246e-09 5.9837e-09 2.67797e-08 9.12392e-08 2.30302e-07
2e+16 5.25578e-09 3.4136e-09 2.93154e-09 5.10025e-09 1.88469e-08 6.17391e-08 1.55129e-07
3e+16 5.63909e-09 3.73949e-09 3.16099e-09 4.65852e-09 1.48806e-08 4.69868e-08 1.17262e-07
4e+16 5.85862e-09 3.93477e-09 3.29863e-09 4.39348e-09 1.25007e-08 3.81348e-08 9.44508e-08
5e+16 6.00086e-09 4.06486e-09 3.39039e-09 4.21679e-09 1.09142e-08 3.22332e-08 7.92055e-08
6e+16 6.10052e-09 4.15773e-09 3.45592e-09 4.09058e-09 9.78094e-09 2.80176e-08 6.82973e-08
7e+16 6.17423e-09 4.22735e-09 3.50506e-09 3.99593e-09 8.931e-09 2.48558e-08 6.01059e-08
8e+16 6.23096e-09 4.28148e-09 3.54328e-09 3.9223e-09 8.26994e-09 2.23966e-08 5.37288e-08
9e+16 6.27596e-09 4.32478e-09 3.57386e-09 3.86341e-09 7.74108e-09 2.04293e-08 4.86233e-08
1e+17 6.31254e-09 4.3602e-09 3.59888e-09 3.81522e-09 7.30839e-09 1.88196e-08 4.44435e-08
2e+17 6.48378e-09 4.52877e-09 3.71799e-09 3.58575e-09 5.24793e-09 1.11541e-08 2.45084e-08
3e+17 6.54339e-09 4.58856e-09 3.76026e-09 3.50433e-09 4.5168e-09 8.43401e-09 1.74222e-08
4e+17 6.57369e-09 4.61917e-09 3.7819e-09 3.46262e-09 4.14232e-09 7.04077e-09 1.37901e-08
5e+17 6.59204e-09 4.63778e-09 3.79506e-09 3.43727e-09 3.91469e-09 6.19389e-09 1.15815e-08
6e+17 6.60434e-09 4.65028e-09 3.8039e-09 3.42023e-09 3.7617e-09 5.62468e-09 1.00967e-08
7e+17 6.61315e-09 4.65926e-09 3.81025e-09 3.40799e-09 3.6518e-09 5.21581e-09 9.03e-09
8e+17 6.61979e-09 4.66603e-09 3.81504e-09 3.39877e-09 3.56904e-09 4.90789e-09 8.22657e-09
9e+17 6.62496e-09 4.67131e-09 3.81877e-09 3.39158e-09 3.50446e-09 4.66765e-09 7.59965e-09
1e+18 6.6291e-09 4.67554e-09 3.82176e-09 3.38582e-09 3.45268e-09 4.47497e-09 7.09684e-09
2e+18 6.64782e-09 4.6947e-09 3.83532e-09 3.35971e-09 3.21822e-09 3.60268e-09 4.82003e-09
3e+18 6.65409e-09 4.70112e-09 3.83986e-09 3.35094e-09 3.13955e-09 3.30998e-09 4.0559e-09
4e+18 6.65723e-09 4.70435e-09 3.84214e-09 3.34655e-09 3.10012e-09 3.16327e-09 3.67285e-09
5e+18 6.65911e-09 4.70628e-09 3.84351e-09 3.34391e-09 3.07643e-09 3.07512e-09 3.44271e-09
6e+18 6.66037e-09 4.70757e-09 3.84442e-09 3.34215e-09 3.06062e-09 3.01631e-09 3.28915e-09
7e+18 6.66127e-09 4.7085e-09 3.84508e-09 3.3409e-09 3.04932e-09 2.97427e-09 3.1794e-09
8e+18 6.66194e-09 4.70919e-09 3.84557e-09 3.33995e-09 3.04085e-09 2.94274e-09 3.09705e-09
9e+18 6.66247e-09 4.70973e-09 3.84595e-09 3.33922e-09 3.03425e-09 2.9182e-09 3.03298e-09
1e+19 6.66289e-09 4.71016e-09 3.84625e-09 3.33863e-09 3.02897e-09 2.89856e-09 2.98171e-09
2e+19 6.66478e-09 4.7121e-09 3.84763e-09 3.33598e-09 3.00521e-09 2.81015e-09 2.75086e-09
3e+19 6.66541e-09 4.71275e-09 3.84809e-09 3.3351e-09 2.99728e-09 2.78066e-09 2.67385e-09
4e+19 6.66572e-09 4.71307e-09 3.84831e-09 3.33466e-09 2.99332e-09 2.76592e-09 2.63534e-09
5e+19 6.66591e-09 4.71327e-09 3.84845e-09 3.33439e-09 2.99094e-09 2.75707e-09 2.61223e-09
6e+19 6.66604e-09 4.7134e-09 3.84854e-09 3.33422e-09 2.98936e-09 2.75116e-09 2.59682e-09
7e+19 6.66613e-09 4.71349e-09 3.84861e-09 3.33409e-09 2.98822e-09 2.74695e-09 2.58581e-09
8e+19 6.66619e-09 4.71356e-09 3.84866e-09 3.334e-09 2.98737e-09 2.74379e-09 2.57756e-09
9e+19 6.66625e-09 4.71361e-09 3.8487e-09 3.33392e-09 2.98671e-09 2.74133e-09 2.57114e-09
